wavelength_(um),star_planet_signal_(erg/s/cm2),noise_(erg/s/cm2),stellar_signal_(erg/s/cm2),planet_signal_(erg/s/cm2)
0.2,2.82869e-20,1.13389e-18,2.82869e-20,3.04317e-27
0.2001052632,2.83952e-20,1.13216e-18,2.83952e-20,1.82586e-27
0.2002105817,2.85189e-20,1.13044e-18,2.85189e-20,1.66249e-27
0.2003159557,2.8643e-20,1.12871e-18,2.8643e-20,6.55288e-28
0.2004213852,2.87676e-20,1.127e-18,2.87676e-20,8.2951e-30
0.2005268701,2.88927e-20,1.12528e-18,2.88927e-20,3.8673e-30
0.2006324106,2.90182e-20,1.12357e-18,2.90182e-20,4.19115e-30
0.2007380066,2.91442e-20,1.12186e-18,2.91442e-20,2.2799e-30
0.2008436581,2.92706e-20,1.12015e-18,2.92706e-20,1.83095e-30
0.2009493653,2.93976e-20,1.11845e-18,2.93976e-20,1.7068e-30
0.2010551282,2.95249e-20,1.11675e-18,2.95249e-20,3.2442e-30
0.2011609466,2.96528e-20,1.11506e-18,2.96528e-20,7.87452e-30
0.2012668208,2.97811e-20,1.11336e-18,2.97811e-20,1.57706e-29
0.2013727507,2.99099e-20,1.11167e-18,2.99099e-20,3.28424e-29
0.2014787364,3.00392e-20,1.10999e-18,3.00392e-20,7.27248e-29
0.2015847778,3.01689e-20,1.1083e-18,3.01689e-20,1.6687e-28
0.2016908751,3.02991e-20,1.10662e-18,3.02991e-20,2.58563e-28
0.2017970282,3.04298e-20,1.10494e-18,3.04298e-20,1.55721e-28
0.2019032371,3.0561e-20,1.10327e-18,3.0561e-20,1.04135e-28
0.202009502,3.06926e-20,1.1016e-18,3.06926e-20,1.14468e-28
0.2021158228,3.08247e-20,1.09993e-18,3.08247e-20,3.30633e-29
0.2022221995,3.09573e-20,1.09827e-18,3.09573e-20,2.95977e-29
0.2023286323,3.10904e-20,1.0966e-18,3.10904e-20,1.45392e-28
0.202435121,3.1224e-20,1.09494e-18,3.1224e-20,3.37419e-28
0.2025416658,3.1358e-20,1.09329e-18,3.1358e-20,6.44178e-28
0.2026482667,3.14926e-20,1.09163e-18,3.14926e-20,9.20784e-28
0.2027549237,3.16276e-20,1.08998e-18,3.16276e-20,1.2154e-27
0.2028616368,3.17632e-20,1.08834e-18,3.17632e-20,1.84685e-27
0.2029684061,3.18992e-20,1.08669e-18,3.18992e-20,2.66852e-27
0.2030752316,3.20357e-20,1.08505e-18,3.20357e-20,3.91063e-27
0.2031821133,3.21727e-20,1.08341e-18,3.21727e-20,4.84972e-27
0.2032890512,3.23102e-20,1.08178e-18,3.23102e-20,5.84571e-27
0.2033960455,3.24482e-20,1.08015e-18,3.24482e-20,3.37575e-27
0.203503096,3.25867e-20,1.07852e-18,3.25867e-20,3.26313e-28
0.2036102029,3.27257e-20,1.07689e-18,3.27257e-20,3.75752e-29
0.2037173662,3.28651e-20,1.07527e-18,3.28651e-20,1.43715e-28
0.2038245858,3.30051e-20,1.07365e-18,3.30051e-20,2.90384e-28
0.2039318619,3.31456e-20,1.07203e-18,3.31456e-20,5.48168e-28
0.2040391945,3.32866e-20,1.07042e-18,3.32866e-20,6.36825e-28
0.2041465835,3.34282e-20,1.0688e-18,3.34282e-20,7.73774e-28
0.2042540291,3.35702e-20,1.0672e-18,3.35702e-20,6.20804e-28
0.2043615312,3.37127e-20,1.06559e-18,3.37127e-20,2.9759e-28
0.2044690899,3.38558e-20,1.06399e-18,3.38558e-20,1.13626e-28
0.2045767052,3.39993e-20,1.06239e-18,3.39993e-20,7.97693e-29
0.2046843772,3.41434e-20,1.06079e-18,3.41434e-20,8.17864e-29
0.2047921058,3.4288e-20,1.0592e-18,3.4288e-20,7.92966e-29
0.2048998911,3.44331e-20,1.05761e-18,3.44331e-20,4.51168e-29
0.2050077332,3.45787e-20,1.05602e-18,3.45787e-20,1.41181e-29
0.205115632,3.47248e-20,1.05443e-18,3.47248e-20,1.20975e-29
0.2052235876,3.48715e-20,1.05285e-18,3.48715e-20,9.78047e-30
0.2053316,3.50186e-20,1.05127e-18,3.50186e-20,1.97942e-29
0.2054396693,3.51664e-20,1.04969e-18,3.51664e-20,1.04138e-28
0.2055477954,3.53146e-20,1.04812e-18,3.53146e-20,3.28396e-28
0.2056559784,3.54633e-20,1.04655e-18,3.54633e-20,6.65977e-28
0.2057642184,3.56126e-20,1.04498e-18,3.56126e-20,1.30917e-27
0.2058725154,3.57624e-20,1.04341e-18,3.57624e-20,1.76144e-27
0.2059808694,3.59128e-20,1.04185e-18,3.59128e-20,2.33618e-27
0.2060892803,3.60637e-20,1.04029e-18,3.60637e-20,3.663e-27
0.2061977484,3.62151e-20,1.03874e-18,3.62151e-20,5.28622e-27
0.2063062735,3.6367e-20,1.03718e-18,3.6367e-20,6.59072e-27
0.2064148558,3.65195e-20,1.03563e-18,3.65195e-20,8.24748e-27
0.2065234952,3.66725e-20,1.03408e-18,3.66725e-20,6.1153e-27
0.2066321917,3.68261e-20,1.03254e-18,3.68261e-20,7.00281e-28
0.2067409455,3.69802e-20,1.03099e-18,3.69802e-20,1.66223e-28
0.2068497565,3.71348e-20,1.02945e-18,3.71348e-20,1.49153e-28
0.2069586248,3.729e-20,1.02792e-18,3.729e-20,4.57825e-28
0.2070675504,3.74458e-20,1.02638e-18,3.74458e-20,8.28436e-28
0.2071765333,3.7602e-20,1.02485e-18,3.7602e-20,1.45658e-27
0.2072855736,3.77589e-20,1.02332e-18,3.77589e-20,2.30584e-27
0.2073946713,3.79163e-20,1.02179e-18,3.79163e-20,3.39367e-27
0.2075038264,3.80742e-20,1.02027e-18,3.80742e-20,4.97279e-27
0.2076130389,3.82327e-20,1.01875e-18,3.82327e-20,6.6698e-27
0.2077223089,3.83917e-20,1.01723e-18,3.83917e-20,8.58737e-27
0.2078316365,3.85513e-20,1.01572e-18,3.85513e-20,9.15813e-27
0.2079410216,3.87115e-20,1.0142e-18,3.87115e-20,9.03946e-27
0.2080504642,3.88722e-20,1.01269e-18,3.88722e-20,8.83744e-27
0.2081599644,3.90335e-20,1.01119e-18,3.90335e-20,3.8704e-27
0.2082695223,3.91953e-20,1.00968e-18,3.91953e-20,6.88512e-29
0.2083791379,3.93577e-20,1.00818e-18,3.93577e-20,7.98466e-30
0.2084888111,3.95207e-20,1.00668e-18,3.95207e-20,7.74662e-29
0.208598542,3.96842e-20,1.00518e-18,3.96842e-20,8.67722e-29
0.2087083307,3.98483e-20,1.00369e-18,3.98483e-20,7.4897e-29
0.2088181772,4.0013e-20,1.0022e-18,4.0013e-20,1.52367e-28
0.2089280815,4.01782e-20,1.00071e-18,4.01782e-20,3.70593e-28
0.2090380437,4.0344e-20,9.99224e-19,4.0344e-20,8.1704e-28
0.2091480637,4.05104e-20,9.9774e-19,4.05104e-20,1.47952e-27
0.2092581416,4.06774e-20,9.9626e-19,4.06774e-20,2.59452e-27
0.2093682775,4.08449e-20,9.94782e-19,4.08449e-20,4.00697e-27
0.2094784713,4.1013e-20,9.93307e-19,4.1013e-20,6.22467e-27
0.2095887232,4.11817e-20,9.91834e-19,4.11817e-20,9.82611e-27
0.209699033,4.1351e-20,9.90364e-19,4.1351e-20,1.21097e-26
0.2098094009,4.15209e-20,9.88897e-19,4.15209e-20,1.01821e-26
0.2099198269,4.16913e-20,9.87432e-19,4.16913e-20,1.86972e-27
0.210030311,4.18624e-20,9.8597e-19,4.18624e-20,1.20032e-27
0.2101408533,4.2034e-20,9.8451e-19,4.2034e-20,5.8986e-28
0.2102514538,4.22062e-20,9.83053e-19,4.22062e-20,5.76257e-28
0.2103621124,4.2379e-20,9.81599e-19,4.2379e-20,1.47154e-27
0.2104728293,4.25524e-20,9.80147e-19,4.25524e-20,2.73067e-27
0.2105836045,4.27264e-20,9.78698e-19,4.27264e-20,3.9245e-27
0.210694438,4.2901e-20,9.77251e-19,4.2901e-20,5.96639e-27
0.2108053298,4.30762e-20,9.75807e-19,4.30762e-20,7.68995e-27
0.21091628,4.3252e-20,9.74365e-19,4.3252e-20,9.70287e-27
0.2110272885,4.34284e-20,9.72926e-19,4.34283e-20,1.32629e-26
0.2111383555,4.36053e-20,9.7149e-19,4.36053e-20,1.90375e-26
0.211249481,4.37829e-20,9.70056e-19,4.37829e-20,2.30572e-26
0.2113606649,4.39611e-20,9.68625e-19,4.39611e-20,2.68131e-26
0.2114719074,4.41399e-20,9.67196e-19,4.41399e-20,2.45879e-26
0.2115832084,4.43193e-20,9.6577e-19,4.43193e-20,8.94205e-27
0.2116945679,4.44993e-20,9.64346e-19,4.44993e-20,9.10182e-28
0.2118059861,4.468e-20,9.62925e-19,4.468e-20,1.17748e-27
0.211917463,4.48612e-20,9.61506e-19,4.48612e-20,1.80973e-27
0.2120289985,4.50431e-20,9.6009e-19,4.50431e-20,2.05536e-27
0.2121405927,4.52255e-20,9.58676e-19,4.52255e-20,1.85287e-27
0.2122522456,4.54086e-20,9.57265e-19,4.54086e-20,1.72218e-27
0.2123639573,4.55923e-20,9.55856e-19,4.55923e-20,2.76094e-27
0.2124757278,4.57767e-20,9.5445e-19,4.57767e-20,4.05429e-27
0.2125875572,4.59616e-20,9.53046e-19,4.59616e-20,3.95142e-27
0.2126994454,4.61472e-20,9.51645e-19,4.61472e-20,3.70834e-27
0.2128113924,4.63334e-20,9.50246e-19,4.63334e-20,5.07713e-27
0.2129233984,4.65202e-20,9.4885e-19,4.65202e-20,8.09119e-27
0.2130354634,4.67077e-20,9.47456e-19,4.67077e-20,1.09807e-26
0.2131475873,4.68958e-20,9.46065e-19,4.68958e-20,1.08609e-26
0.2132597703,4.70845e-20,9.44676e-19,4.70845e-20,4.89704e-27
0.2133720122,4.72739e-20,9.43289e-19,4.72739e-20,2.69703e-27
0.2134843133,4.74638e-20,9.41905e-19,4.74638e-20,2.03685e-27
0.2135966735,4.76545e-20,9.40523e-19,4.76545e-20,2.5182e-27
0.2137090928,4.78457e-20,9.39144e-19,4.78457e-20,3.877e-27
0.2138215712,4.80376e-20,9.37767e-19,4.80376e-20,5.59177e-27
0.2139341089,4.82302e-20,9.36393e-19,4.82302e-20,8.21004e-27
0.2140467058,4.84234e-20,9.35021e-19,4.84234e-20,8.89774e-27
0.214159362,4.86172e-20,9.33652e-19,4.86172e-20,8.65751e-27
0.2142720774,4.88117e-20,9.32284e-19,4.88117e-20,1.12167e-26
0.2143848522,4.90068e-20,9.3092e-19,4.90068e-20,1.68193e-26
0.2144976863,4.92026e-20,9.29557e-19,4.92026e-20,2.37131e-26
0.2146105798,4.9399e-20,9.28197e-19,4.9399e-20,2.6941e-26
0.2147235328,4.95961e-20,9.2684e-19,4.95961e-20,2.99256e-26
0.2148365452,4.97939e-20,9.25485e-19,4.97938e-20,3.57801e-26
0.214949617,4.99922e-20,9.24132e-19,4.99922e-20,2.63999e-26
0.2150627484,5.01913e-20,9.22685e-19,5.01913e-20,8.49405e-27
0.2151759393,5.0391e-20,9.21164e-19,5.0391e-20,3.41974e-27
0.2152891898,5.05914e-20,9.19646e-19,5.05913e-20,4.03497e-27
0.2154024999,5.07924e-20,9.18131e-19,5.07924e-20,7.77245e-27
0.2155158697,5.09941e-20,9.16619e-19,5.09941e-20,1.15346e-26
0.2156292991,5.11965e-20,9.15111e-19,5.11964e-20,1.26066e-26
0.2157427882,5.13995e-20,9.13606e-19,5.13995e-20,1.43876e-26
0.215856337,5.16032e-20,9.12103e-19,5.16032e-20,1.83907e-26
0.2159699456,5.18076e-20,9.10604e-19,5.18075e-20,2.19491e-26
0.216083614,5.20126e-20,9.09108e-19,5.20126e-20,2.64033e-26
0.2161973422,5.22183e-20,9.07615e-19,5.22183e-20,2.32168e-26
0.2163111303,5.24247e-20,9.06125e-19,5.24247e-20,2.10576e-26
0.2164249783,5.26318e-20,9.04639e-19,5.26318e-20,2.24803e-26
0.2165388861,5.28395e-20,9.03155e-19,5.28395e-20,2.68476e-26
0.216652854,5.3048e-20,9.01674e-19,5.30479e-20,2.15942e-26
0.2167668818,5.32571e-20,9.00197e-19,5.32571e-20,9.55394e-27
0.2168809696,5.34669e-20,8.98722e-19,5.34669e-20,4.55542e-27
0.2169951175,5.36773e-20,8.97251e-19,5.36773e-20,4.01935e-27
0.2171093255,5.38885e-20,8.95782e-19,5.38885e-20,4.6581e-27
0.2172235935,5.41004e-20,8.94317e-19,5.41004e-20,7.0472e-27
0.2173379217,5.43129e-20,8.92855e-19,5.43129e-20,1.10513e-26
0.2174523101,5.45262e-20,8.91395e-19,5.45262e-20,1.79148e-26
0.2175667587,5.47401e-20,8.89939e-19,5.47401e-20,2.4234e-26
0.2176812675,5.49548e-20,8.88486e-19,5.49547e-20,2.73455e-26
0.2177958366,5.51701e-20,8.87035e-19,5.51701e-20,3.1878e-26
0.217910466,5.53861e-20,8.85588e-19,5.53861e-20,3.82849e-26
0.2180251557,5.56029e-20,8.84143e-19,5.56028e-20,3.71709e-26
0.2181399058,5.58203e-20,8.82702e-19,5.58203e-20,3.96484e-26
0.2182547163,5.60385e-20,8.81264e-19,5.60384e-20,4.94841e-26
0.2183695872,5.62573e-20,8.79828e-19,5.62572e-20,6.14489e-26
0.2184845185,5.64768e-20,8.78395e-19,5.64768e-20,4.6961e-26
0.2185995104,5.66971e-20,8.76966e-19,5.66971e-20,1.9407e-26
0.2187145628,5.6918e-20,8.75539e-19,5.6918e-20,7.71037e-27
0.2188296757,5.71397e-20,8.74115e-19,5.71397e-20,7.90052e-27
0.2189448492,5.73621e-20,8.72694e-19,5.73621e-20,1.16305e-26
0.2190600833,5.75853e-20,8.71276e-19,5.75852e-20,1.95962e-26
0.2191753781,5.78091e-20,8.69861e-19,5.78091e-20,2.50889e-26
0.2192907336,5.80336e-20,8.68449e-19,5.80336e-20,2.6863e-26
0.2194061498,5.82589e-20,8.6704e-19,5.82589e-20,3.19281e-26
0.2195216267,5.84849e-20,8.65633e-19,5.84849e-20,4.37351e-26
0.2196371644,5.87117e-20,8.6423e-19,5.87116e-20,4.53128e-26
0.2197527629,5.89391e-20,8.62829e-19,5.89391e-20,3.72724e-26
0.2198684222,5.91673e-20,8.61431e-19,5.91672e-20,3.56286e-26
0.2199841425,5.93962e-20,8.60036e-19,5.93961e-20,4.45168e-26
0.2200999236,5.96258e-20,8.58644e-19,5.96258e-20,5.2201e-26
0.2202157656,5.98562e-20,8.57255e-19,5.98562e-20,4.26592e-26
0.2203316687,6.00873e-20,8.55868e-19,6.00873e-20,2.80093e-26
0.2204476327,6.03191e-20,8.54485e-19,6.03191e-20,1.31666e-26
0.2205636578,6.05517e-20,8.53104e-19,6.05517e-20,9.80096e-27
0.2206797439,6.0785e-20,8.51726e-19,6.0785e-20,1.37407e-26
0.2207958912,6.10191e-20,8.5035e-19,6.10191e-20,1.76094e-26
0.2209120995,6.12539e-20,8.48978e-19,6.12539e-20,2.21842e-26
0.221028369,6.14895e-20,8.47608e-19,6.14894e-20,2.4888e-26
0.2211446998,6.17258e-20,8.46241e-19,6.17257e-20,2.62436e-26
0.2212610917,6.19628e-20,8.44877e-19,6.19628e-20,2.91807e-26
0.2213775449,6.22006e-20,8.43516e-19,6.22006e-20,3.28778e-26
0.2214940594,6.24392e-20,8.42157e-19,6.24391e-20,3.9508e-26
0.2216106352,6.26785e-20,8.40801e-19,6.26784e-20,4.40145e-26
0.2217272724,6.29186e-20,8.39448e-19,6.29185e-20,4.9499e-26
0.221843971,6.31594e-20,8.38098e-19,6.31593e-20,5.53177e-26
0.221960731,6.3401e-20,8.3675e-19,6.34009e-20,5.50992e-26
0.2220775524,6.36433e-20,8.35405e-19,6.36433e-20,5.2879e-26
0.2221944353,6.38864e-20,8.34063e-19,6.38864e-20,3.64883e-26
0.2223113798,6.41303e-20,8.32723e-19,6.41302e-20,2.6864e-26
0.2224283857,6.43749e-20,8.31386e-19,6.43749e-20,2.635e-26
0.2225454533,6.46203e-20,8.30052e-19,6.46203e-20,2.84473e-26
0.2226625825,6.48665e-20,8.28721e-19,6.48664e-20,2.97236e-26
0.2227797733,6.51134e-20,8.27392e-19,6.51134e-20,3.03037e-26
0.2228970259,6.53611e-20,8.26066e-19,6.53611e-20,3.29727e-26
0.2230143401,6.56096e-20,8.24742e-19,6.56096e-20,4.00842e-26
0.223131716,6.58589e-20,8.23422e-19,6.58589e-20,4.03626e-26
0.2232491538,6.6109e-20,8.22103e-19,6.61089e-20,4.45712e-26
0.2233666533,6.63598e-20,8.20788e-19,6.63597e-20,5.72446e-26
0.2234842147,6.66114e-20,8.19475e-19,6.66113e-20,6.92001e-26
0.223601838,6.68638e-20,8.18165e-19,6.68637e-20,7.55788e-26
0.2237195232,6.7117e-20,8.16857e-19,6.71169e-20,7.44666e-26
0.2238372703,6.7371e-20,8.15552e-19,6.73709e-20,5.75081e-26
0.2239550794,6.76257e-20,8.1425e-19,6.76257e-20,5.30544e-26
0.2240729505,6.78812e-20,8.1295e-19,6.78812e-20,4.15048e-26
0.2241908836,6.81376e-20,8.11653e-19,6.81375e-20,3.45558e-26
0.2243088788,6.83947e-20,8.10358e-19,6.83947e-20,3.2314e-26
0.2244269361,6.86527e-20,8.09067e-19,6.86526e-20,3.63386e-26
0.2245450556,6.89114e-20,8.07777e-19,6.89113e-20,3.84027e-26
0.2246632372,6.91709e-20,8.0649e-19,6.91709e-20,4.07099e-26
0.224781481,6.94313e-20,8.05206e-19,6.94312e-20,4.32468e-26
0.224899787,6.96924e-20,8.03924e-19,6.96924e-20,4.54294e-26
0.2250181553,6.99543e-20,8.02645e-19,6.99543e-20,4.73446e-26
0.2251365859,7.02171e-20,8.01369e-19,7.0217e-20,5.26565e-26
0.2252550789,7.04807e-20,8.00095e-19,7.04806e-20,5.68333e-26
0.2253736342,7.0745e-20,7.98823e-19,7.0745e-20,6.30299e-26
0.2254922519,7.10102e-20,7.97554e-19,7.10102e-20,5.7059e-26
0.225610932,7.12762e-20,7.96288e-19,7.12762e-20,4.76268e-26
0.2257296746,7.1543e-20,7.95024e-19,7.1543e-20,3.97247e-26
0.2258484797,7.18106e-20,7.93762e-19,7.18106e-20,4.0499e-26
0.2259673473,7.20791e-20,7.92503e-19,7.20791e-20,4.10993e-26
0.2260862775,7.23484e-20,7.91247e-19,7.23483e-20,4.12571e-26
0.2262052703,7.26185e-20,7.89993e-19,7.26184e-20,4.33495e-26
0.2263243257,7.28894e-20,7.88741e-19,7.28893e-20,4.59219e-26
0.2264434438,7.31611e-20,7.87493e-19,7.31611e-20,4.75195e-26
0.2265626245,7.34337e-20,7.86246e-19,7.34337e-20,4.91577e-26
0.226681868,7.37071e-20,7.85002e-19,7.37071e-20,5.20875e-26
0.2268011743,7.39814e-20,7.8376e-19,7.39813e-20,5.22967e-26
0.2269205433,7.42565e-20,7.82521e-19,7.42564e-20,5.20068e-26
0.2270399752,7.45324e-20,7.81285e-19,7.45323e-20,5.31055e-26
0.2271594699,7.48091e-20,7.8005e-19,7.48091e-20,5.43444e-26
0.2272790275,7.50867e-20,7.78819e-19,7.50867e-20,5.44428e-26
0.227398648,7.53651e-20,7.77589e-19,7.53651e-20,5.62999e-26
0.2275183315,7.56444e-20,7.76362e-19,7.56444e-20,5.09139e-26
0.227638078,7.59245e-20,7.75138e-19,7.59245e-20,3.64973e-26
0.2277578875,7.62055e-20,7.73916e-19,7.62054e-20,4.30682e-26
0.2278777601,7.64873e-20,7.72696e-19,7.64873e-20,4.84363e-26
0.2279976958,7.677e-20,7.71479e-19,7.67699e-20,5.10245e-26
0.2281176946,7.70535e-20,7.70264e-19,7.70535e-20,5.23682e-26
0.2282377565,7.73379e-20,7.69052e-19,7.73378e-20,5.56766e-26
0.2283578816,7.76231e-20,7.67841e-19,7.76231e-20,5.8093e-26
0.22847807,7.79092e-20,7.66634e-19,7.79091e-20,5.95489e-26
0.2285983216,7.81962e-20,7.65428e-19,7.81961e-20,6.0595e-26
0.2287186365,7.8484e-20,7.64225e-19,7.84839e-20,5.99769e-26
0.2288390148,7.87726e-20,7.63025e-19,7.87726e-20,5.91507e-26
0.2289594563,7.90622e-20,7.61827e-19,7.90621e-20,5.87772e-26
0.2290799613,7.93526e-20,7.60631e-19,7.93525e-20,5.98528e-26
0.2292005297,7.96439e-20,7.59437e-19,7.96438e-20,6.08375e-26
0.2293211616,7.9936e-20,7.58246e-19,7.9936e-20,6.14337e-26
0.2294418569,8.0229e-20,7.57057e-19,8.0229e-20,6.13786e-26
0.2295626158,8.05229e-20,7.55871e-19,8.05229e-20,6.06969e-26
0.2296834382,8.08177e-20,7.54686e-19,8.08176e-20,5.89704e-26
0.2298043243,8.11134e-20,7.53504e-19,8.11133e-20,5.62771e-26
0.2299252739,8.14099e-20,7.52325e-19,8.14098e-20,5.23658e-26
0.2300462872,8.17073e-20,7.51147e-19,8.17072e-20,5.18414e-26
0.2301673642,8.20056e-20,7.49972e-19,8.20055e-20,5.21213e-26
0.2302885049,8.23048e-20,7.488e-19,8.23047e-20,5.25286e-26
0.2304097094,8.26048e-20,7.47629e-19,8.26048e-20,5.27503e-26
0.2305309777,8.29058e-20,7.46461e-19,8.29058e-20,5.28333e-26
0.2306523097,8.32077e-20,7.45295e-19,8.32076e-20,5.27927e-26
0.2307737057,8.35104e-20,7.44132e-19,8.35104e-20,5.28132e-26
0.2308951655,8.3814e-20,7.42971e-19,8.3814e-20,5.27008e-26
0.2310166893,8.41186e-20,7.41812e-19,8.41185e-20,5.26233e-26
0.231138277,8.4424e-20,7.40655e-19,8.4424e-20,5.24285e-26
0.2312599288,8.47304e-20,7.395e-19,8.47303e-20,5.23054e-26
0.2313816445,8.50376e-20,7.38348e-19,8.50375e-20,5.18624e-26
0.2315034243,8.53457e-20,7.37198e-19,8.53457e-20,5.06686e-26
0.2316252682,8.56548e-20,7.3605e-19,8.56547e-20,4.948e-26
0.2317471763,8.59648e-20,7.34904e-19,8.59647e-20,4.8656e-26
0.2318691485,8.62756e-20,7.33761e-19,8.62756e-20,4.84991e-26
0.2319911849,8.65874e-20,7.3262e-19,8.65874e-20,4.87522e-26
0.2321132855,8.69001e-20,7.31481e-19,8.69001e-20,4.89878e-26
0.2322354504,8.72137e-20,7.30344e-19,8.72137e-20,4.89913e-26
0.2323576796,8.75282e-20,7.2921e-19,8.75282e-20,4.84595e-26
0.2324799731,8.78437e-20,7.28078e-19,8.78436e-20,4.74028e-26
0.232602331,8.81601e-20,7.26947e-19,8.816e-20,4.67764e-26
0.2327247532,8.84774e-20,7.2582e-19,8.84773e-20,4.6536e-26
0.23284724,8.87956e-20,7.24694e-19,8.87955e-20,4.6312e-26
0.2329697911,8.91147e-20,7.2357e-19,8.91147e-20,4.61259e-26
0.2330924068,8.94348e-20,7.22449e-19,8.94348e-20,4.59176e-26
0.233215087,8.97558e-20,7.2133e-19,8.97558e-20,4.56829e-26
0.2333378318,9.00778e-20,7.20213e-19,9.00777e-20,4.54244e-26
0.2334606412,9.04006e-20,7.19098e-19,9.04006e-20,4.51559e-26
0.2335835152,9.07244e-20,7.17985e-19,9.07244e-20,4.48691e-26
0.2337064539,9.10492e-20,7.16874e-19,9.10491e-20,4.45397e-26
0.2338294573,9.13749e-20,7.15766e-19,9.13748e-20,4.41762e-26
0.2339525254,9.17015e-20,7.1466e-19,9.17015e-20,4.37569e-26
0.2340756584,9.20291e-20,7.13555e-19,9.2029e-20,4.33274e-26
0.2341988561,9.23576e-20,7.12453e-19,9.23576e-20,4.28986e-26
0.2343221186,9.26871e-20,7.11353e-19,9.2687e-20,4.24521e-26
0.2344454461,9.30175e-20,7.10255e-19,9.30175e-20,4.19688e-26
0.2345688384,9.33489e-20,7.0916e-19,9.33488e-20,4.14748e-26
0.2346922957,9.36812e-20,7.08066e-19,9.36812e-20,4.09762e-26
0.2348158179,9.40145e-20,7.06975e-19,9.40144e-20,4.05089e-26
0.2349394052,9.43487e-20,7.05885e-19,9.43487e-20,4.01255e-26
0.2350630575,9.46839e-20,7.04798e-19,9.46839e-20,3.97691e-26
0.2351867749,9.50201e-20,7.03713e-19,9.502e-20,3.94158e-26
0.2353105574,9.53572e-20,7.0263e-19,9.53572e-20,3.9073e-26
0.2354344051,9.56953e-20,7.01549e-19,9.56953e-20,3.87369e-26
0.2355583179,9.60343e-20,7.0047e-19,9.60343e-20,3.84151e-26
0.235682296,9.63744e-20,6.99393e-19,9.63743e-20,3.80974e-26
0.2358063393,9.67154e-20,6.98318e-19,9.67153e-20,3.77769e-26
0.2359304479,9.70573e-20,6.97245e-19,9.70573e-20,3.74825e-26
0.2360546218,9.74003e-20,6.96174e-19,9.74002e-20,3.7199e-26
0.2361788611,9.77442e-20,6.95106e-19,9.77442e-20,3.69156e-26
0.2363031658,9.80891e-20,6.94039e-19,9.80891e-20,3.66334e-26
0.2364275359,9.8435e-20,6.92974e-19,9.84349e-20,3.63549e-26
0.2365519714,9.87818e-20,6.91912e-19,9.87818e-20,3.6072e-26
0.2366764724,9.91297e-20,6.90851e-19,9.91296e-20,3.57881e-26
0.236801039,9.94785e-20,6.89793e-19,9.94785e-20,3.5509e-26
0.2369256711,9.98283e-20,6.88736e-19,9.98283e-20,3.52084e-26
0.2370503689,1.00179e-19,6.87682e-19,1.00179e-19,3.48921e-26
0.2371751322,1.00531e-19,6.86629e-19,1.00531e-19,3.45736e-26
0.2372999612,1.00884e-19,6.85579e-19,1.00884e-19,3.42529e-26
0.2374248559,1.01238e-19,6.8453e-19,1.01237e-19,3.3939e-26
0.2375498164,1.01592e-19,6.83484e-19,1.01592e-19,3.36275e-26
0.2376748426,1.01948e-19,6.82439e-19,1.01948e-19,3.33206e-26
