wavelength_(um),star_planet_signal_(erg/s/cm2),noise_(erg/s/cm2),stellar_signal_(erg/s/cm2),planet_signal_(erg/s/cm2)
0.2,1.26076e-21,1.12351e-19,1.26076e-21,3.75451e-27
0.2001052632,1.26486e-21,1.1218e-19,1.26486e-21,4.26951e-27
0.2002105817,1.26964e-21,1.12009e-19,1.26963e-21,4.48652e-27
0.2003159557,1.27443e-21,1.11838e-19,1.27442e-21,2.8551e-27
0.2004213852,1.27923e-21,1.11667e-19,1.27923e-21,6.96557e-28
0.2005268701,1.28405e-21,1.11497e-19,1.28405e-21,6.37762e-28
0.2006324106,1.28888e-21,1.11327e-19,1.28888e-21,9.2548e-28
0.2007380066,1.29373e-21,1.11158e-19,1.29373e-21,1.05635e-27
0.2008436581,1.29859e-21,1.10988e-19,1.29859e-21,1.23501e-27
0.2009493653,1.30347e-21,1.10819e-19,1.30346e-21,1.37399e-27
0.2010551282,1.30836e-21,1.10651e-19,1.30835e-21,1.78281e-27
0.2011609466,1.31326e-21,1.10482e-19,1.31326e-21,2.27266e-27
0.2012668208,1.31818e-21,1.10314e-19,1.31818e-21,2.57568e-27
0.2013727507,1.32311e-21,1.10147e-19,1.32311e-21,2.76633e-27
0.2014787364,1.32806e-21,1.09979e-19,1.32806e-21,3.00902e-27
0.2015847778,1.33302e-21,1.09812e-19,1.33302e-21,3.58285e-27
0.2016908751,1.338e-21,1.09645e-19,1.33799e-21,3.48961e-27
0.2017970282,1.34299e-21,1.09479e-19,1.34298e-21,2.10547e-27
0.2019032371,1.34799e-21,1.09313e-19,1.34799e-21,1.44017e-27
0.202009502,1.35301e-21,1.09147e-19,1.35301e-21,1.33344e-27
0.2021158228,1.35804e-21,1.08981e-19,1.35804e-21,7.51099e-28
0.2022221995,1.36309e-21,1.08816e-19,1.36309e-21,6.56837e-28
0.2023286323,1.36815e-21,1.08651e-19,1.36815e-21,1.12606e-27
0.202435121,1.37323e-21,1.08486e-19,1.37323e-21,1.53807e-27
0.2025416658,1.37832e-21,1.08322e-19,1.37832e-21,1.96324e-27
0.2026482667,1.38343e-21,1.08158e-19,1.38343e-21,2.23447e-27
0.2027549237,1.38855e-21,1.07994e-19,1.38855e-21,2.48867e-27
0.2028616368,1.39369e-21,1.07831e-19,1.39369e-21,3.03105e-27
0.2029684061,1.39884e-21,1.07668e-19,1.39884e-21,3.67947e-27
0.2030752316,1.40401e-21,1.07505e-19,1.404e-21,4.62444e-27
0.2031821133,1.40919e-21,1.07342e-19,1.40919e-21,5.38948e-27
0.2032890512,1.41439e-21,1.0718e-19,1.41438e-21,6.34809e-27
0.2033960455,1.41959e-21,1.07018e-19,1.41959e-21,4.27913e-27
0.203503096,1.42482e-21,1.06856e-19,1.42482e-21,1.04445e-27
0.2036102029,1.43006e-21,1.06695e-19,1.43006e-21,5.95516e-28
0.2037173662,1.43531e-21,1.06534e-19,1.43531e-21,9.92006e-28
0.2038245858,1.44058e-21,1.06373e-19,1.44058e-21,1.31671e-27
0.2039318619,1.44587e-21,1.06212e-19,1.44587e-21,1.80705e-27
0.2040391945,1.45117e-21,1.06052e-19,1.45117e-21,2.10639e-27
0.2041465835,1.45648e-21,1.05892e-19,1.45648e-21,2.69625e-27
0.2042540291,1.46181e-21,1.05732e-19,1.46181e-21,3.28734e-27
0.2043615312,1.46716e-21,1.05573e-19,1.46715e-21,3.74534e-27
0.2044690899,1.47252e-21,1.05414e-19,1.47251e-21,4.07274e-27
0.2045767052,1.47789e-21,1.05255e-19,1.47789e-21,3.9956e-27
0.2046843772,1.48328e-21,1.05097e-19,1.48328e-21,4.35688e-27
0.2047921058,1.48869e-21,1.04938e-19,1.48869e-21,4.98774e-27
0.2048998911,1.49411e-21,1.0478e-19,1.49411e-21,3.26206e-27
0.2050077332,1.49954e-21,1.04623e-19,1.49954e-21,1.40963e-27
0.205115632,1.50499e-21,1.04465e-19,1.50499e-21,1.09157e-27
0.2052235876,1.51046e-21,1.04308e-19,1.51046e-21,8.2895e-28
0.2053316,1.51594e-21,1.04151e-19,1.51594e-21,8.85737e-28
0.2054396693,1.52144e-21,1.03995e-19,1.52144e-21,1.46362e-27
0.2055477954,1.52695e-21,1.03839e-19,1.52695e-21,2.08693e-27
0.2056559784,1.53248e-21,1.03683e-19,1.53248e-21,2.61607e-27
0.2057642184,1.53802e-21,1.03527e-19,1.53802e-21,3.31978e-27
0.2058725154,1.54358e-21,1.03372e-19,1.54358e-21,3.58382e-27
0.2059808694,1.54916e-21,1.03217e-19,1.54915e-21,3.92457e-27
0.2060892803,1.55475e-21,1.03062e-19,1.55474e-21,4.90275e-27
0.2061977484,1.56035e-21,1.02907e-19,1.56035e-21,5.99271e-27
0.2063062735,1.56597e-21,1.02753e-19,1.56597e-21,6.69844e-27
0.2064148558,1.57161e-21,1.02599e-19,1.5716e-21,7.59579e-27
0.2065234952,1.57726e-21,1.02445e-19,1.57725e-21,5.81963e-27
0.2066321917,1.58292e-21,1.02292e-19,1.58292e-21,1.7392e-27
0.2067409455,1.5886e-21,1.02139e-19,1.5886e-21,8.72165e-28
0.2068497565,1.5943e-21,1.01986e-19,1.5943e-21,9.10243e-28
0.2069586248,1.60002e-21,1.01833e-19,1.60001e-21,1.42355e-27
0.2070675504,1.60575e-21,1.01681e-19,1.60574e-21,1.84263e-27
0.2071765333,1.61149e-21,1.01529e-19,1.61149e-21,2.3992e-27
0.2072855736,1.61725e-21,1.01377e-19,1.61725e-21,3.04331e-27
0.2073946713,1.62303e-21,1.01225e-19,1.62303e-21,3.81048e-27
0.2075038264,1.62882e-21,1.01074e-19,1.62882e-21,4.88534e-27
0.2076130389,1.63463e-21,1.00923e-19,1.63463e-21,6.0912e-27
0.2077223089,1.64046e-21,1.00772e-19,1.64045e-21,7.58494e-27
0.2078316365,1.6463e-21,1.00622e-19,1.64629e-21,8.39013e-27
0.2079410216,1.65216e-21,1.00472e-19,1.65215e-21,9.13486e-27
0.2080504642,1.65803e-21,1.00322e-19,1.65802e-21,1.08628e-26
0.2081599644,1.66391e-21,1.00172e-19,1.66391e-21,7.57745e-27
0.2082695223,1.66981e-21,1.00023e-19,1.66981e-21,1.92389e-27
0.2083791379,1.67573e-21,9.98734e-20,1.67573e-21,1.15356e-27
0.2084888111,1.68167e-21,9.97245e-20,1.68167e-21,1.45407e-27
0.208598542,1.68762e-21,9.9576e-20,1.68762e-21,1.58273e-27
0.2087083307,1.69359e-21,9.94276e-20,1.69358e-21,1.94104e-27
0.2088181772,1.69957e-21,9.92796e-20,1.69957e-21,2.46733e-27
0.2089280815,1.70557e-21,9.91317e-20,1.70557e-21,3.31635e-27
0.2090380437,1.71159e-21,9.89842e-20,1.71158e-21,4.14398e-27
0.2091480637,1.71762e-21,9.88369e-20,1.71762e-21,5.10234e-27
0.2092581416,1.72367e-21,9.86899e-20,1.72366e-21,5.92905e-27
0.2093682775,1.72973e-21,9.85431e-20,1.72973e-21,6.86374e-27
0.2094784713,1.73582e-21,9.83966e-20,1.73581e-21,8.76703e-27
0.2095887232,1.74192e-21,9.82504e-20,1.74191e-21,1.09667e-26
0.209699033,1.74803e-21,9.81044e-20,1.74802e-21,1.16085e-26
0.2098094009,1.75416e-21,9.79587e-20,1.75415e-21,8.98377e-27
0.2099198269,1.7603e-21,9.78132e-20,1.76029e-21,2.74903e-27
0.210030311,1.76646e-21,9.7668e-20,1.76645e-21,2.17255e-27
0.2101408533,1.77263e-21,9.75231e-20,1.77263e-21,1.56972e-27
0.2102514538,1.77883e-21,9.73784e-20,1.77883e-21,1.53763e-27
0.2103621124,1.78504e-21,9.7234e-20,1.78504e-21,2.32921e-27
0.2104728293,1.79127e-21,9.70898e-20,1.79127e-21,3.16218e-27
0.2105836045,1.79751e-21,9.69458e-20,1.79751e-21,3.84267e-27
0.210694438,1.80378e-21,9.68022e-20,1.80377e-21,4.94039e-27
0.2108053298,1.81005e-21,9.66588e-20,1.81005e-21,5.82278e-27
0.21091628,1.81635e-21,9.65156e-20,1.81634e-21,6.8387e-27
0.2110272885,1.82266e-21,9.63727e-20,1.82265e-21,8.63876e-27
0.2111383555,1.82899e-21,9.623e-20,1.82898e-21,1.1617e-26
0.211249481,1.83533e-21,9.60876e-20,1.83532e-21,1.38007e-26
0.2113606649,1.8417e-21,9.59454e-20,1.84168e-21,1.59781e-26
0.2114719074,1.84807e-21,9.58035e-20,1.84806e-21,1.48923e-26
0.2115832084,1.85446e-21,9.56619e-20,1.85445e-21,6.60138e-27
0.2116945679,1.86086e-21,9.55205e-20,1.86086e-21,1.95553e-27
0.2118059861,1.86729e-21,9.53793e-20,1.86729e-21,2.15165e-27
0.211917463,1.87373e-21,9.52384e-20,1.87373e-21,2.73769e-27
0.2120289985,1.88019e-21,9.50977e-20,1.88019e-21,3.15831e-27
0.2121405927,1.88667e-21,9.49573e-20,1.88666e-21,3.67122e-27
0.2122522456,1.89316e-21,9.48171e-20,1.89316e-21,4.58315e-27
0.2123639573,1.89967e-21,9.46772e-20,1.89967e-21,5.48604e-27
0.2124757278,1.9062e-21,9.45375e-20,1.9062e-21,5.91758e-27
0.2125875572,1.91275e-21,9.43981e-20,1.91274e-21,6.77558e-27
0.2126994454,1.91931e-21,9.42589e-20,1.9193e-21,8.88556e-27
0.2128113924,1.92589e-21,9.412e-20,1.92588e-21,1.16658e-26
0.2129233984,1.93249e-21,9.39813e-20,1.93247e-21,1.51864e-26
0.2130354634,1.9391e-21,9.38428e-20,1.93908e-21,1.73367e-26
0.2131475873,1.94573e-21,9.37046e-20,1.94571e-21,1.34655e-26
0.2132597703,1.95236e-21,9.35666e-20,1.95236e-21,5.74693e-27
0.2133720122,1.95902e-21,9.34289e-20,1.95902e-21,3.5776e-27
0.2134843133,1.9657e-21,9.32914e-20,1.9657e-21,2.98358e-27
0.2135966735,1.9724e-21,9.31541e-20,1.9724e-21,3.217e-27
0.2137090928,1.97911e-21,9.30171e-20,1.97911e-21,3.9716e-27
0.2138215712,1.98585e-21,9.28803e-20,1.98584e-21,4.85497e-27
0.2139341089,1.99259e-21,9.27438e-20,1.99259e-21,6.1228e-27
0.2140467058,1.99936e-21,9.26075e-20,1.99935e-21,6.39982e-27
0.214159362,2.00614e-21,9.24714e-20,2.00614e-21,6.23639e-27
0.2142720774,2.01294e-21,9.23356e-20,2.01294e-21,7.42078e-27
0.2143848522,2.01976e-21,9.22e-20,2.01975e-21,1.00101e-26
0.2144976863,2.0266e-21,9.20647e-20,2.02659e-21,1.31813e-26
0.2146105798,2.03345e-21,9.19296e-20,2.03344e-21,1.46578e-26
0.2147235328,2.04032e-21,9.17947e-20,2.04031e-21,1.60418e-26
0.2148365452,2.04721e-21,9.166e-20,2.04719e-21,1.88088e-26
0.214949617,2.05411e-21,9.15256e-20,2.05409e-21,1.441e-26
0.2150627484,2.06102e-21,9.13819e-20,2.06101e-21,6.08054e-27
0.2151759393,2.06796e-21,9.12308e-20,2.06795e-21,3.50582e-27
0.2152891898,2.07491e-21,9.108e-20,2.07491e-21,3.89215e-27
0.2154024999,2.08189e-21,9.09295e-20,2.08188e-21,5.80044e-27
0.2155158697,2.08888e-21,9.07794e-20,2.08887e-21,7.63012e-27
0.2156292991,2.09589e-21,9.06295e-20,2.09588e-21,8.17823e-27
0.2157427882,2.10291e-21,9.048e-20,2.1029e-21,9.13779e-27
0.215856337,2.10996e-21,9.03307e-20,2.10994e-21,1.12967e-26
0.2159699456,2.11702e-21,9.01818e-20,2.117e-21,1.38179e-26
0.216083614,2.1241e-21,9.00332e-20,2.12408e-21,1.81778e-26
0.2161973422,2.13119e-21,8.98849e-20,2.13118e-21,1.76673e-26
0.2163111303,2.13831e-21,8.97369e-20,2.13829e-21,1.66956e-26
0.2164249783,2.14544e-21,8.95892e-20,2.14542e-21,1.67645e-26
0.2165388861,2.15259e-21,8.94418e-20,2.15257e-21,1.93684e-26
0.216652854,2.15975e-21,8.92947e-20,2.15973e-21,1.71221e-26
0.2167668818,2.16693e-21,8.91479e-20,2.16692e-21,9.13999e-27
0.2168809696,2.17412e-21,8.90014e-20,2.17412e-21,5.019e-27
0.2169951175,2.18134e-21,8.88552e-20,2.18134e-21,4.53789e-27
0.2171093255,2.18858e-21,8.87093e-20,2.18857e-21,4.89382e-27
0.2172235935,2.19583e-21,8.85637e-20,2.19583e-21,6.30566e-27
0.2173379217,2.20311e-21,8.84184e-20,2.2031e-21,8.39103e-27
0.2174523101,2.2104e-21,8.82734e-20,2.21039e-21,1.19798e-26
0.2175667587,2.21771e-21,8.81287e-20,2.2177e-21,1.49808e-26
0.2176812675,2.22504e-21,8.79843e-20,2.22502e-21,1.61342e-26
0.2177958366,2.23238e-21,8.78402e-20,2.23236e-21,1.80447e-26
0.217910466,2.23975e-21,8.76964e-20,2.23972e-21,2.09897e-26
0.2180251557,2.24712e-21,8.75529e-20,2.2471e-21,2.01253e-26
0.2181399058,2.25452e-21,8.74096e-20,2.2545e-21,2.11918e-26
0.2182547163,2.26194e-21,8.72667e-20,2.26192e-21,2.59938e-26
0.2183695872,2.26938e-21,8.71241e-20,2.26935e-21,3.20201e-26
0.2184845185,2.27682e-21,8.69817e-20,2.2768e-21,2.45849e-26
0.2185995104,2.28428e-21,8.68396e-20,2.28427e-21,1.13264e-26
0.2187145628,2.29176e-21,8.66979e-20,2.29175e-21,5.86913e-27
0.2188296757,2.29926e-21,8.65564e-20,2.29926e-21,5.94891e-27
0.2189448492,2.30679e-21,8.64152e-20,2.30678e-21,7.74175e-27
0.2190600833,2.31433e-21,8.62743e-20,2.31432e-21,1.14685e-26
0.2191753781,2.3219e-21,8.61336e-20,2.32188e-21,1.40443e-26
0.2192907336,2.32947e-21,8.59933e-20,2.32946e-21,1.48938e-26
0.2194061498,2.33707e-21,8.58532e-20,2.33705e-21,1.73262e-26
0.2195216267,2.34469e-21,8.57135e-20,2.34467e-21,2.31135e-26
0.2196371644,2.35232e-21,8.5574e-20,2.3523e-21,2.39285e-26
0.2197527629,2.35997e-21,8.54348e-20,2.35995e-21,2.00043e-26
0.2198684222,2.36764e-21,8.52958e-20,2.36762e-21,1.9239e-26
0.2199841425,2.37533e-21,8.51572e-20,2.3753e-21,2.3711e-26
0.2200999236,2.38303e-21,8.50188e-20,2.38301e-21,2.77691e-26
0.2202157656,2.39075e-21,8.48807e-20,2.39073e-21,2.29783e-26
0.2203316687,2.39849e-21,8.47429e-20,2.39847e-21,1.58281e-26
0.2204476327,2.40624e-21,8.46054e-20,2.40623e-21,8.69183e-27
0.2205636578,2.41401e-21,8.44681e-20,2.41401e-21,7.115e-27
0.2206797439,2.42181e-21,8.43312e-20,2.4218e-21,9.15509e-27
0.2207958912,2.42963e-21,8.41945e-20,2.42962e-21,1.11157e-26
0.2209120995,2.43746e-21,8.4058e-20,2.43745e-21,1.33307e-26
0.221028369,2.44532e-21,8.39219e-20,2.4453e-21,1.4674e-26
0.2211446998,2.45319e-21,8.3786e-20,2.45317e-21,1.5684e-26
0.2212610917,2.46108e-21,8.36504e-20,2.46106e-21,1.75624e-26
0.2213775449,2.46899e-21,8.35151e-20,2.46897e-21,1.94364e-26
0.2214940594,2.47691e-21,8.338e-20,2.47689e-21,2.28791e-26
0.2216106352,2.48486e-21,8.32452e-20,2.48483e-21,2.52018e-26
0.2217272724,2.49282e-21,8.31107e-20,2.4928e-21,2.80931e-26
0.221843971,2.50081e-21,8.29765e-20,2.50078e-21,3.11368e-26
0.221960731,2.50881e-21,8.28425e-20,2.50878e-21,3.07391e-26
0.2220775524,2.51682e-21,8.27088e-20,2.51679e-21,2.92601e-26
0.2221944353,2.52485e-21,8.25753e-20,2.52483e-21,2.03793e-26
0.2223113798,2.5329e-21,8.24422e-20,2.53289e-21,1.54815e-26
0.2224283857,2.54097e-21,8.23093e-20,2.54096e-21,1.52136e-26
0.2225454533,2.54907e-21,8.21766e-20,2.54905e-21,1.62654e-26
0.2226625825,2.55718e-21,8.20442e-20,2.55716e-21,1.69196e-26
0.2227797733,2.56531e-21,8.19121e-20,2.56529e-21,1.72294e-26
0.2228970259,2.57346e-21,8.17803e-20,2.57344e-21,1.86112e-26
0.2230143401,2.58163e-21,8.16487e-20,2.58161e-21,2.23244e-26
0.223131716,2.58981e-21,8.15173e-20,2.58979e-21,2.25164e-26
0.2232491538,2.59802e-21,8.13863e-20,2.598e-21,2.48287e-26
0.2233666533,2.60625e-21,8.12555e-20,2.60622e-21,3.19747e-26
0.2234842147,2.6145e-21,8.11249e-20,2.61446e-21,3.92074e-26
0.223601838,2.62277e-21,8.09946e-20,2.62272e-21,4.34079e-26
0.2237195232,2.63105e-21,8.08646e-20,2.631e-21,4.29279e-26
0.2238372703,2.63933e-21,8.07348e-20,2.6393e-21,3.2612e-26
0.2239550794,2.64765e-21,8.06053e-20,2.64762e-21,3.01489e-26
0.2240729505,2.65598e-21,8.04761e-20,2.65595e-21,2.36691e-26
0.2241908836,2.66433e-21,8.03471e-20,2.66431e-21,1.98883e-26
0.2243088788,2.6727e-21,8.02183e-20,2.67268e-21,1.87099e-26
0.2244269361,2.6811e-21,8.00899e-20,2.68108e-21,2.0921e-26
0.2245450556,2.68951e-21,7.99616e-20,2.68949e-21,2.21512e-26
0.2246632372,2.69794e-21,7.98337e-20,2.69792e-21,2.34601e-26
0.224781481,2.70639e-21,7.97059e-20,2.70637e-21,2.49067e-26
0.224899787,2.71486e-21,7.95785e-20,2.71484e-21,2.61755e-26
0.2250181553,2.72335e-21,7.94512e-20,2.72333e-21,2.7325e-26
0.2251365859,2.73186e-21,7.93243e-20,2.73183e-21,3.05152e-26
0.2252550789,2.74039e-21,7.91975e-20,2.74036e-21,3.31234e-26
0.2253736342,2.74894e-21,7.90711e-20,2.7489e-21,3.71299e-26
0.2254922519,2.7575e-21,7.89449e-20,2.75747e-21,3.34297e-26
0.225610932,2.76608e-21,7.88189e-20,2.76605e-21,2.77428e-26
0.2257296746,2.77468e-21,7.86932e-20,2.77465e-21,2.32056e-26
0.2258484797,2.7833e-21,7.85677e-20,2.78327e-21,2.37031e-26
0.2259673473,2.79194e-21,7.84425e-20,2.79191e-21,2.40966e-26
0.2260862775,2.8006e-21,7.83175e-20,2.80057e-21,2.42391e-26
0.2262052703,2.80928e-21,7.81927e-20,2.80925e-21,2.55181e-26
0.2263243257,2.81798e-21,7.80682e-20,2.81795e-21,2.71073e-26
0.2264434438,2.8267e-21,7.7944e-20,2.82667e-21,2.81393e-26
0.2265626245,2.83543e-21,7.782e-20,2.8354e-21,2.92178e-26
0.226681868,2.84419e-21,7.76962e-20,2.84416e-21,3.11314e-26
0.2268011743,2.85297e-21,7.75727e-20,2.85294e-21,3.13513e-26
0.2269205433,2.86176e-21,7.74494e-20,2.86173e-21,3.12557e-26
0.2270399752,2.87058e-21,7.73264e-20,2.87054e-21,3.20597e-26
0.2271594699,2.87941e-21,7.72036e-20,2.87938e-21,3.2966e-26
0.2272790275,2.88826e-21,7.70811e-20,2.88823e-21,3.31333e-26
0.227398648,2.89713e-21,7.69587e-20,2.8971e-21,3.44825e-26
0.2275183315,2.90602e-21,7.68367e-20,2.90599e-21,3.10351e-26
0.227638078,2.91492e-21,7.67148e-20,2.9149e-21,2.2114e-26
0.2277578875,2.92386e-21,7.65932e-20,2.92383e-21,2.6216e-26
0.2278777601,2.93281e-21,7.64719e-20,2.93278e-21,2.96768e-26
0.2279976958,2.94178e-21,7.63507e-20,2.94175e-21,3.14593e-26
0.2281176946,2.95077e-21,7.62299e-20,2.95074e-21,3.24542e-26
0.2282377565,2.95978e-21,7.61092e-20,2.95974e-21,3.48231e-26
0.2283578816,2.96881e-21,7.59888e-20,2.96877e-21,3.66388e-26
0.22847807,2.97785e-21,7.58686e-20,2.97782e-21,3.78077e-26
0.2285983216,2.98692e-21,7.57487e-20,2.98688e-21,3.87025e-26
0.2287186365,2.99601e-21,7.56289e-20,2.99597e-21,3.83741e-26
0.2288390148,3.00511e-21,7.55094e-20,3.00507e-21,3.78889e-26
0.2289594563,3.01423e-21,7.53902e-20,3.0142e-21,3.77321e-26
0.2290799613,3.02338e-21,7.52712e-20,3.02334e-21,3.86588e-26
0.2292005297,3.03254e-21,7.51524e-20,3.0325e-21,3.95326e-26
0.2293211616,3.04173e-21,7.50338e-20,3.04169e-21,4.01243e-26
0.2294418569,3.05093e-21,7.49155e-20,3.05089e-21,4.02187e-26
0.2295626158,3.06015e-21,7.47974e-20,3.06011e-21,3.98265e-26
0.2296834382,3.06939e-21,7.46795e-20,3.06935e-21,3.86275e-26
0.2298043243,3.07865e-21,7.45619e-20,3.07861e-21,3.67031e-26
0.2299252739,3.08793e-21,7.44445e-20,3.08789e-21,3.39216e-26
0.2300462872,3.09723e-21,7.43273e-20,3.09719e-21,3.36627e-26
0.2301673642,3.10655e-21,7.42103e-20,3.10651e-21,3.39852e-26
0.2302885049,3.11589e-21,7.40936e-20,3.11585e-21,3.44072e-26
0.2304097094,3.12525e-21,7.39771e-20,3.12521e-21,3.46967e-26
0.2305309777,3.13463e-21,7.38608e-20,3.13459e-21,3.48848e-26
0.2306523097,3.14403e-21,7.37447e-20,3.14399e-21,3.49818e-26
0.2307737057,3.15345e-21,7.36289e-20,3.15341e-21,3.51272e-26
0.2308951655,3.16288e-21,7.35133e-20,3.16285e-21,3.51678e-26
0.2310166893,3.17234e-21,7.33979e-20,3.17231e-21,3.52318e-26
0.231138277,3.18182e-21,7.32827e-20,3.18179e-21,3.52058e-26
0.2312599288,3.19132e-21,7.31678e-20,3.19128e-21,3.52364e-26
0.2313816445,3.20084e-21,7.3053e-20,3.2008e-21,3.5016e-26
0.2315034243,3.21037e-21,7.29385e-20,3.21034e-21,3.4208e-26
0.2316252682,3.21993e-21,7.28242e-20,3.2199e-21,3.34055e-26
0.2317471763,3.22951e-21,7.27102e-20,3.22947e-21,3.2886e-26
0.2318691485,3.2391e-21,7.25963e-20,3.23907e-21,3.28794e-26
0.2319911849,3.24872e-21,7.24827e-20,3.24869e-21,3.3191e-26
0.2321132855,3.25836e-21,7.23693e-20,3.25832e-21,3.34925e-26
0.2322354504,3.26801e-21,7.22561e-20,3.26798e-21,3.36143e-26
0.2323576796,3.27769e-21,7.21431e-20,3.27766e-21,3.33115e-26
0.2324799731,3.28738e-21,7.20303e-20,3.28735e-21,3.25921e-26
0.232602331,3.2971e-21,7.19178e-20,3.29707e-21,3.22123e-26
0.2327247532,3.30684e-21,7.18055e-20,3.3068e-21,3.21364e-26
0.23284724,3.31659e-21,7.16933e-20,3.31656e-21,3.20702e-26
0.2329697911,3.32637e-21,7.15814e-20,3.32634e-21,3.2023e-26
0.2330924068,3.33616e-21,7.14697e-20,3.33613e-21,3.19576e-26
0.233215087,3.34598e-21,7.13583e-20,3.34595e-21,3.1871e-26
0.2333378318,3.35582e-21,7.1247e-20,3.35578e-21,3.17647e-26
0.2334606412,3.36567e-21,7.1136e-20,3.36564e-21,3.16501e-26
0.2335835152,3.37555e-21,7.10251e-20,3.37552e-21,3.15203e-26
0.2337064539,3.38544e-21,7.09145e-20,3.38541e-21,3.13553e-26
0.2338294573,3.39536e-21,7.08041e-20,3.39533e-21,3.11632e-26
0.2339525254,3.4053e-21,7.06939e-20,3.40526e-21,3.09301e-26
0.2340756584,3.41525e-21,7.05839e-20,3.41522e-21,3.06884e-26
0.2341988561,3.42523e-21,7.04741e-20,3.4252e-21,3.04462e-26
0.2343221186,3.43522e-21,7.03645e-20,3.43519e-21,3.01891e-26
0.2344454461,3.44524e-21,7.02551e-20,3.44521e-21,2.99013e-26
0.2345688384,3.45528e-21,7.0146e-20,3.45525e-21,2.96036e-26
0.2346922957,3.46533e-21,7.0037e-20,3.4653e-21,2.93013e-26
0.2348158179,3.47541e-21,6.99283e-20,3.47538e-21,2.90229e-26
0.2349394052,3.4855e-21,6.98197e-20,3.48548e-21,2.87979e-26
0.2350630575,3.49562e-21,6.97114e-20,3.49559e-21,2.85918e-26
0.2351867749,3.50576e-21,6.96032e-20,3.50573e-21,2.8388e-26
0.2353105574,3.51591e-21,6.94953e-20,3.51589e-21,2.8192e-26
0.2354344051,3.52609e-21,6.93876e-20,3.52606e-21,2.80008e-26
0.2355583179,3.53629e-21,6.92801e-20,3.53626e-21,2.78205e-26
0.235682296,3.54651e-21,6.91727e-20,3.54648e-21,2.76428e-26
0.2358063393,3.55674e-21,6.90656e-20,3.55672e-21,2.74624e-26
0.2359304479,3.567e-21,6.89587e-20,3.56698e-21,2.73061e-26
0.2360546218,3.57728e-21,6.8852e-20,3.57725e-21,2.71584e-26
0.2361788611,3.58758e-21,6.87455e-20,3.58755e-21,2.70105e-26
0.2363031658,3.5979e-21,6.86392e-20,3.59787e-21,2.68628e-26
0.2364275359,3.60824e-21,6.85331e-20,3.60821e-21,2.67176e-26
0.2365519714,3.6186e-21,6.84272e-20,3.61857e-21,2.65684e-26
0.2366764724,3.62898e-21,6.83215e-20,3.62895e-21,2.64177e-26
0.236801039,3.63937e-21,6.8216e-20,3.63935e-21,2.62704e-26
0.2369256711,3.64979e-21,6.81107e-20,3.64977e-21,2.61008e-26
0.2370503689,3.66023e-21,6.80055e-20,3.66021e-21,2.59168e-26
0.2371751322,3.6707e-21,6.79006e-20,3.67067e-21,2.57305e-26
0.2372999612,3.68118e-21,6.77959e-20,3.68115e-21,2.55417e-26
0.2374248559,3.69168e-21,6.76914e-20,3.69165e-21,2.5358e-26
0.2375498164,3.7022e-21,6.75871e-20,3.70217e-21,2.51757e-26
0.2376748426,3.71274e-21,6.74829e-20,3.71272e-21,2.49966e-26
