wavelength_(um),star_planet_signal_(erg/s/cm2),noise_(erg/s/cm2),stellar_signal_(erg/s/cm2),planet_signal_(erg/s/cm2)
0.2,9.78154e-22,1.92876e-19,9.78152e-22,1.28562e-27
0.2001052632,9.81444e-22,1.92581e-19,9.81443e-22,1.07331e-27
0.2002105817,9.85261e-22,1.92287e-19,9.8526e-22,1.03783e-27
0.2003159557,9.89089e-22,1.91994e-19,9.89089e-22,4.87904e-28
0.2004213852,9.92929e-22,1.91701e-19,9.92929e-22,1.8967e-29
0.2005268701,9.96781e-22,1.91409e-19,9.96781e-22,1.08277e-29
0.2006324106,1.00065e-21,1.91117e-19,1.00065e-21,1.52035e-29
0.2007380066,1.00452e-21,1.90826e-19,1.00452e-21,1.24235e-29
0.2008436581,1.00841e-21,1.90535e-19,1.00841e-21,1.25968e-29
0.2009493653,1.01231e-21,1.90245e-19,1.01231e-21,1.31983e-29
0.2010551282,1.01622e-21,1.89956e-19,1.01622e-21,2.2309e-29
0.2011609466,1.02014e-21,1.89667e-19,1.02014e-21,4.17157e-29
0.2012668208,1.02408e-21,1.89378e-19,1.02408e-21,6.50409e-29
0.2013727507,1.02803e-21,1.8909e-19,1.02803e-21,9.96748e-29
0.2014787364,1.03198e-21,1.88803e-19,1.03198e-21,1.57924e-28
0.2015847778,1.03596e-21,1.88516e-19,1.03596e-21,2.70112e-28
0.2016908751,1.03994e-21,1.88229e-19,1.03994e-21,3.36448e-28
0.2017970282,1.04393e-21,1.87943e-19,1.04393e-21,1.90827e-28
0.2019032371,1.04794e-21,1.87658e-19,1.04794e-21,1.18051e-28
0.202009502,1.05196e-21,1.87373e-19,1.05196e-21,1.1706e-28
0.2021158228,1.05599e-21,1.87089e-19,1.05599e-21,3.74916e-29
0.2022221995,1.06004e-21,1.86805e-19,1.06004e-21,3.14718e-29
0.2023286323,1.06409e-21,1.86521e-19,1.06409e-21,1.15663e-28
0.202435121,1.06816e-21,1.86239e-19,1.06816e-21,2.29462e-28
0.2025416658,1.07224e-21,1.85956e-19,1.07224e-21,3.84913e-28
0.2026482667,1.07633e-21,1.85675e-19,1.07633e-21,5.07881e-28
0.2027549237,1.08044e-21,1.85393e-19,1.08044e-21,6.31965e-28
0.2028616368,1.08456e-21,1.85113e-19,1.08455e-21,8.94222e-28
0.2029684061,1.08869e-21,1.84832e-19,1.08868e-21,1.2229e-27
0.2030752316,1.09283e-21,1.84553e-19,1.09283e-21,1.70899e-27
0.2031821133,1.09698e-21,1.84274e-19,1.09698e-21,2.08445e-27
0.2032890512,1.10115e-21,1.83995e-19,1.10115e-21,2.50793e-27
0.2033960455,1.10533e-21,1.83717e-19,1.10532e-21,1.51076e-27
0.203503096,1.10952e-21,1.83439e-19,1.10952e-21,1.72817e-28
0.2036102029,1.11372e-21,1.83162e-19,1.11372e-21,3.24682e-29
0.2037173662,1.11794e-21,1.82885e-19,1.11794e-21,1.02865e-28
0.2038245858,1.12216e-21,1.82609e-19,1.12216e-21,1.88271e-28
0.2039318619,1.12641e-21,1.82333e-19,1.12641e-21,3.33258e-28
0.2040391945,1.13066e-21,1.82058e-19,1.13066e-21,4.01645e-28
0.2041465835,1.13493e-21,1.81783e-19,1.13493e-21,5.229e-28
0.2042540291,1.13921e-21,1.81509e-19,1.1392e-21,5.21252e-28
0.2043615312,1.1435e-21,1.81235e-19,1.1435e-21,3.71095e-28
0.2044690899,1.1478e-21,1.80962e-19,1.1478e-21,2.36719e-28
0.2045767052,1.15212e-21,1.8069e-19,1.15212e-21,1.95104e-28
0.2046843772,1.15645e-21,1.80417e-19,1.15645e-21,2.05633e-28
0.2047921058,1.16079e-21,1.80146e-19,1.16079e-21,2.14913e-28
0.2048998911,1.16514e-21,1.79874e-19,1.16514e-21,1.29669e-28
0.2050077332,1.16951e-21,1.79604e-19,1.16951e-21,4.06287e-29
0.205115632,1.17389e-21,1.79333e-19,1.17389e-21,3.04724e-29
0.2052235876,1.17828e-21,1.79064e-19,1.17828e-21,2.15176e-29
0.2053316,1.18269e-21,1.78794e-19,1.18269e-21,3.29986e-29
0.2054396693,1.18711e-21,1.78525e-19,1.18711e-21,1.18625e-28
0.2055477954,1.19154e-21,1.78257e-19,1.19154e-21,2.80738e-28
0.2056559784,1.19598e-21,1.77989e-19,1.19598e-21,4.74445e-28
0.2057642184,1.20044e-21,1.77722e-19,1.20044e-21,7.86031e-28
0.2058725154,1.20491e-21,1.77455e-19,1.20491e-21,9.64605e-28
0.2059808694,1.2094e-21,1.77189e-19,1.2094e-21,1.18445e-27
0.2060892803,1.21389e-21,1.76923e-19,1.21389e-21,1.70934e-27
0.2061977484,1.2184e-21,1.76657e-19,1.2184e-21,2.32396e-27
0.2063062735,1.22293e-21,1.76392e-19,1.22292e-21,2.7822e-27
0.2064148558,1.22746e-21,1.76128e-19,1.22746e-21,3.36061e-27
0.2065234952,1.23201e-21,1.75864e-19,1.23201e-21,2.49302e-27
0.2066321917,1.23657e-21,1.756e-19,1.23657e-21,3.70295e-28
0.2067409455,1.24114e-21,1.75337e-19,1.24114e-21,1.0013e-28
0.2068497565,1.24573e-21,1.75075e-19,1.24573e-21,9.71112e-29
0.2069586248,1.25033e-21,1.74813e-19,1.25033e-21,2.52609e-28
0.2070675504,1.25494e-21,1.74551e-19,1.25494e-21,4.19747e-28
0.2071765333,1.25957e-21,1.7429e-19,1.25957e-21,6.81495e-28
0.2072855736,1.26421e-21,1.74029e-19,1.26421e-21,1.01702e-27
0.2073946713,1.26887e-21,1.73769e-19,1.26886e-21,1.43571e-27
0.2075038264,1.27353e-21,1.73509e-19,1.27353e-21,2.03556e-27
0.2076130389,1.27821e-21,1.7325e-19,1.27821e-21,2.69081e-27
0.2077223089,1.28291e-21,1.72991e-19,1.2829e-21,3.45751e-27
0.2078316365,1.28762e-21,1.72732e-19,1.28761e-21,3.7576e-27
0.2079410216,1.29234e-21,1.72474e-19,1.29233e-21,3.86385e-27
0.2080504642,1.29707e-21,1.72217e-19,1.29706e-21,4.07382e-27
0.2081599644,1.30181e-21,1.7196e-19,1.30181e-21,2.14192e-27
0.2082695223,1.30657e-21,1.71703e-19,1.30657e-21,1.49394e-28
0.2083791379,1.31135e-21,1.71447e-19,1.31135e-21,3.31331e-29
0.2084888111,1.31613e-21,1.71192e-19,1.31613e-21,1.00649e-28
0.208598542,1.32093e-21,1.70936e-19,1.32093e-21,1.14408e-28
0.2087083307,1.32575e-21,1.70682e-19,1.32575e-21,1.23703e-28
0.2088181772,1.33058e-21,1.70427e-19,1.33057e-21,2.1047e-28
0.2089280815,1.33542e-21,1.70173e-19,1.33542e-21,4.02663e-28
0.2090380437,1.34027e-21,1.6992e-19,1.34027e-21,6.93018e-28
0.2091480637,1.34514e-21,1.69667e-19,1.34514e-21,1.0633e-27
0.2092581416,1.35002e-21,1.69415e-19,1.35002e-21,1.55893e-27
0.2093682775,1.35492e-21,1.69163e-19,1.35492e-21,2.13e-27
0.2094784713,1.35983e-21,1.68911e-19,1.35983e-21,3.05641e-27
0.2095887232,1.36475e-21,1.6866e-19,1.36475e-21,4.40711e-27
0.209699033,1.36969e-21,1.68409e-19,1.36969e-21,5.13272e-27
0.2098094009,1.37464e-21,1.68159e-19,1.37464e-21,4.15724e-27
0.2099198269,1.3796e-21,1.67909e-19,1.3796e-21,8.56778e-28
0.210030311,1.38458e-21,1.6766e-19,1.38458e-21,5.77014e-28
0.2101408533,1.38957e-21,1.67411e-19,1.38957e-21,3.11868e-28
0.2102514538,1.39458e-21,1.67162e-19,1.39457e-21,3.0321e-28
0.2103621124,1.39959e-21,1.66914e-19,1.39959e-21,6.74778e-28
0.2104728293,1.40463e-21,1.66667e-19,1.40463e-21,1.14951e-27
0.2105836045,1.40968e-21,1.66419e-19,1.40967e-21,1.57706e-27
0.210694438,1.41474e-21,1.66173e-19,1.41474e-21,2.29377e-27
0.2108053298,1.41981e-21,1.65926e-19,1.41981e-21,2.89013e-27
0.21091628,1.4249e-21,1.6568e-19,1.4249e-21,3.58576e-27
0.2110272885,1.43001e-21,1.65435e-19,1.43e-21,4.82247e-27
0.2111383555,1.43513e-21,1.6519e-19,1.43512e-21,6.86024e-27
0.211249481,1.44026e-21,1.64945e-19,1.44025e-21,8.32392e-27
0.2113606649,1.4454e-21,1.64701e-19,1.44539e-21,9.73944e-27
0.2114719074,1.45056e-21,1.64457e-19,1.45055e-21,8.9658e-27
0.2115832084,1.45573e-21,1.64214e-19,1.45573e-21,3.3742e-27
0.2116945679,1.46091e-21,1.63971e-19,1.46091e-21,4.65624e-28
0.2118059861,1.46611e-21,1.63729e-19,1.46611e-21,5.69603e-28
0.211917463,1.47133e-21,1.63487e-19,1.47133e-21,8.44586e-28
0.2120289985,1.47656e-21,1.63245e-19,1.47656e-21,9.91364e-28
0.2121405927,1.4818e-21,1.63004e-19,1.4818e-21,1.02285e-27
0.2122522456,1.48706e-21,1.62763e-19,1.48706e-21,1.1128e-27
0.2123639573,1.49233e-21,1.62523e-19,1.49233e-21,1.58115e-27
0.2124757278,1.49762e-21,1.62283e-19,1.49762e-21,2.04414e-27
0.2125875572,1.50292e-21,1.62044e-19,1.50292e-21,2.13754e-27
0.2126994454,1.50824e-21,1.61805e-19,1.50823e-21,2.30289e-27
0.2128113924,1.51357e-21,1.61566e-19,1.51356e-21,3.0627e-27
0.2129233984,1.51891e-21,1.61328e-19,1.51891e-21,4.45944e-27
0.2130354634,1.52427e-21,1.6109e-19,1.52426e-21,5.67105e-27
0.2131475873,1.52964e-21,1.60853e-19,1.52964e-21,5.18605e-27
0.2132597703,1.53502e-21,1.60616e-19,1.53502e-21,2.25406e-27
0.2133720122,1.54042e-21,1.60379e-19,1.54042e-21,1.2502e-27
0.2134843133,1.54584e-21,1.60143e-19,1.54584e-21,9.59859e-28
0.2135966735,1.55127e-21,1.59907e-19,1.55127e-21,1.12945e-27
0.2137090928,1.55672e-21,1.59672e-19,1.55671e-21,1.62552e-27
0.2138215712,1.56217e-21,1.59437e-19,1.56217e-21,2.23542e-27
0.2139341089,1.56765e-21,1.59202e-19,1.56765e-21,3.14907e-27
0.2140467058,1.57314e-21,1.58968e-19,1.57313e-21,3.37648e-27
0.214159362,1.57864e-21,1.58735e-19,1.57864e-21,3.28213e-27
0.2142720774,1.58416e-21,1.58501e-19,1.58415e-21,4.16967e-27
0.2143848522,1.58969e-21,1.58268e-19,1.58968e-21,6.13467e-27
0.2144976863,1.59524e-21,1.58036e-19,1.59523e-21,8.60304e-27
0.2146105798,1.6008e-21,1.57804e-19,1.60079e-21,9.7806e-27
0.2147235328,1.60638e-21,1.57572e-19,1.60637e-21,1.08959e-26
0.2148365452,1.61197e-21,1.57341e-19,1.61196e-21,1.31248e-26
0.214949617,1.61757e-21,1.5711e-19,1.61756e-21,9.63254e-27
0.2150627484,1.62319e-21,1.56863e-19,1.62318e-21,3.22642e-27
0.2151759393,1.62882e-21,1.56604e-19,1.62882e-21,1.42156e-27
0.2152891898,1.63447e-21,1.56345e-19,1.63447e-21,1.65719e-27
0.2154024999,1.64013e-21,1.56086e-19,1.64013e-21,2.99756e-27
0.2155158697,1.64581e-21,1.55828e-19,1.64581e-21,4.33904e-27
0.2156292991,1.65151e-21,1.55571e-19,1.6515e-21,4.73647e-27
0.2157427882,1.65722e-21,1.55314e-19,1.65721e-21,5.41363e-27
0.215856337,1.66294e-21,1.55058e-19,1.66294e-21,6.94579e-27
0.2159699456,1.66868e-21,1.54802e-19,1.66867e-21,8.49822e-27
0.216083614,1.67444e-21,1.54547e-19,1.67443e-21,1.07578e-26
0.2161973422,1.68021e-21,1.54292e-19,1.6802e-21,9.78158e-27
0.2163111303,1.68599e-21,1.54038e-19,1.68598e-21,8.98234e-27
0.2164249783,1.69179e-21,1.53784e-19,1.69178e-21,9.41058e-27
0.2165388861,1.6976e-21,1.53531e-19,1.69759e-21,1.12305e-26
0.216652854,1.70343e-21,1.53279e-19,1.70342e-21,9.27638e-27
0.2167668818,1.70927e-21,1.53026e-19,1.70926e-21,4.27282e-27
0.2168809696,1.71512e-21,1.52775e-19,1.71512e-21,2.07363e-27
0.2169951175,1.72099e-21,1.52524e-19,1.72099e-21,1.83002e-27
0.2171093255,1.72688e-21,1.52273e-19,1.72688e-21,2.0744e-27
0.2172235935,1.73279e-21,1.52023e-19,1.73278e-21,3.00569e-27
0.2173379217,1.73871e-21,1.51774e-19,1.7387e-21,4.51438e-27
0.2174523101,1.74464e-21,1.51524e-19,1.74464e-21,7.15618e-27
0.2175667587,1.7506e-21,1.51276e-19,1.75059e-21,9.57869e-27
0.2176812675,1.75656e-21,1.51028e-19,1.75655e-21,1.07152e-26
0.2177958366,1.76254e-21,1.5078e-19,1.76253e-21,1.24701e-26
0.217910466,1.76854e-21,1.50533e-19,1.76852e-21,1.50901e-26
0.2180251557,1.77455e-21,1.50287e-19,1.77453e-21,1.4544e-26
0.2181399058,1.78057e-21,1.50041e-19,1.78056e-21,1.55762e-26
0.2182547163,1.78662e-21,1.49795e-19,1.7866e-21,1.99491e-26
0.2183695872,1.79268e-21,1.4955e-19,1.79266e-21,2.563e-26
0.2184845185,1.79875e-21,1.49306e-19,1.79873e-21,1.88853e-26
0.2185995104,1.80482e-21,1.49062e-19,1.80481e-21,7.3851e-27
0.2187145628,1.81092e-21,1.48818e-19,1.81091e-21,3.07161e-27
0.2188296757,1.81704e-21,1.48575e-19,1.81703e-21,3.15645e-27
0.2189448492,1.82317e-21,1.48333e-19,1.82316e-21,4.53939e-27
0.2190600833,1.82932e-21,1.48091e-19,1.82931e-21,7.56831e-27
0.2191753781,1.83549e-21,1.47849e-19,1.83548e-21,9.72756e-27
0.2192907336,1.84167e-21,1.47608e-19,1.84166e-21,1.04591e-26
0.2194061498,1.84786e-21,1.47368e-19,1.84785e-21,1.25891e-26
0.2195216267,1.85408e-21,1.47128e-19,1.85406e-21,1.78276e-26
0.2196371644,1.8603e-21,1.46888e-19,1.86029e-21,1.85873e-26
0.2197527629,1.86654e-21,1.46649e-19,1.86653e-21,1.50112e-26
0.2198684222,1.8728e-21,1.4641e-19,1.87278e-21,1.43243e-26
0.2199841425,1.87907e-21,1.46172e-19,1.87906e-21,1.84346e-26
0.2200999236,1.88537e-21,1.45934e-19,1.88534e-21,2.22897e-26
0.2202157656,1.89166e-21,1.45697e-19,1.89165e-21,1.77246e-26
0.2203316687,1.89798e-21,1.45461e-19,1.89797e-21,1.12981e-26
0.2204476327,1.90431e-21,1.45224e-19,1.9043e-21,5.30548e-27
0.2205636578,1.91066e-21,1.44989e-19,1.91065e-21,4.00366e-27
0.2206797439,1.91702e-21,1.44753e-19,1.91702e-21,5.57345e-27
0.2207958912,1.92341e-21,1.44519e-19,1.9234e-21,7.1375e-27
0.2209120995,1.92981e-21,1.44284e-19,1.9298e-21,9.01715e-27
0.221028369,1.93622e-21,1.4405e-19,1.93621e-21,1.01806e-26
0.2211446998,1.94265e-21,1.43817e-19,1.94264e-21,1.08931e-26
0.2212610917,1.9491e-21,1.43584e-19,1.94908e-21,1.23438e-26
0.2213775449,1.95556e-21,1.43352e-19,1.95555e-21,1.406e-26
0.2214940594,1.96204e-21,1.4312e-19,1.96202e-21,1.72726e-26
0.2216106352,1.96853e-21,1.42888e-19,1.96851e-21,1.95816e-26
0.2217272724,1.97504e-21,1.42657e-19,1.97502e-21,2.25569e-26
0.221843971,1.98157e-21,1.42426e-19,1.98155e-21,2.58691e-26
0.221960731,1.98811e-21,1.42196e-19,1.98809e-21,2.5724e-26
0.2220775524,1.99467e-21,1.41967e-19,1.99464e-21,2.44186e-26
0.2221944353,2.00123e-21,1.41737e-19,2.00121e-21,1.57513e-26
0.2223113798,2.00781e-21,1.41509e-19,2.0078e-21,1.1255e-26
0.2224283857,2.01442e-21,1.4128e-19,2.01441e-21,1.1031e-26
0.2225454533,2.02104e-21,1.41053e-19,2.02103e-21,1.20105e-26
0.2226625825,2.02767e-21,1.40825e-19,2.02766e-21,1.26362e-26
0.2227797733,2.03433e-21,1.40598e-19,2.03431e-21,1.29448e-26
0.2228970259,2.041e-21,1.40372e-19,2.04098e-21,1.42756e-26
0.2230143401,2.04768e-21,1.40146e-19,2.04767e-21,1.79158e-26
0.223131716,2.05438e-21,1.3992e-19,2.05437e-21,1.81453e-26
0.2232491538,2.0611e-21,1.39695e-19,2.06108e-21,2.05606e-26
0.2233666533,2.06784e-21,1.3947e-19,2.06781e-21,2.83922e-26
0.2234842147,2.0746e-21,1.39246e-19,2.07456e-21,3.71536e-26
0.223601838,2.08137e-21,1.39022e-19,2.08133e-21,4.27722e-26
0.2237195232,2.08815e-21,1.38799e-19,2.08811e-21,4.22486e-26
0.2238372703,2.09493e-21,1.38576e-19,2.09491e-21,2.9286e-26
0.2239550794,2.10175e-21,1.38354e-19,2.10172e-21,2.65031e-26
0.2240729505,2.10857e-21,1.38132e-19,2.10855e-21,1.95546e-26
0.2241908836,2.11541e-21,1.3791e-19,2.11539e-21,1.57315e-26
0.2243088788,2.12227e-21,1.37689e-19,2.12226e-21,1.46024e-26
0.2244269361,2.12915e-21,1.37468e-19,2.12913e-21,1.68205e-26
0.2245450556,2.13605e-21,1.37248e-19,2.13603e-21,1.80775e-26
0.2246632372,2.14296e-21,1.37028e-19,2.14294e-21,1.94899e-26
0.224781481,2.14989e-21,1.36809e-19,2.14987e-21,2.11033e-26
0.224899787,2.15683e-21,1.3659e-19,2.15681e-21,2.25665e-26
0.2250181553,2.16379e-21,1.36371e-19,2.16377e-21,2.39252e-26
0.2251365859,2.17077e-21,1.36153e-19,2.17075e-21,2.77266e-26
0.2252550789,2.17777e-21,1.35935e-19,2.17774e-21,3.10149e-26
0.2253736342,2.18478e-21,1.35718e-19,2.18475e-21,3.63522e-26
0.2254922519,2.1918e-21,1.35501e-19,2.19177e-21,3.16486e-26
0.225610932,2.19884e-21,1.35285e-19,2.19881e-21,2.47488e-26
0.2257296746,2.20589e-21,1.35069e-19,2.20587e-21,1.96508e-26
0.2258484797,2.21297e-21,1.34853e-19,2.21295e-21,2.02532e-26
0.2259673473,2.22006e-21,1.34638e-19,2.22004e-21,2.07408e-26
0.2260862775,2.22717e-21,1.34424e-19,2.22715e-21,2.09553e-26
0.2262052703,2.23429e-21,1.34209e-19,2.23427e-21,2.24781e-26
0.2263243257,2.24144e-21,1.33996e-19,2.24141e-21,2.44102e-26
0.2264434438,2.2486e-21,1.33782e-19,2.24857e-21,2.57297e-26
0.2265626245,2.25577e-21,1.33569e-19,2.25574e-21,2.71503e-26
0.226681868,2.26296e-21,1.33356e-19,2.26293e-21,2.96929e-26
0.2268011743,2.27017e-21,1.33144e-19,2.27014e-21,3.00887e-26
0.2269205433,2.2774e-21,1.32933e-19,2.27737e-21,3.00571e-26
0.2270399752,2.28464e-21,1.32721e-19,2.28461e-21,3.12327e-26
0.2271594699,2.2919e-21,1.3251e-19,2.29186e-21,3.25705e-26
0.2272790275,2.29917e-21,1.323e-19,2.29914e-21,3.2908e-26
0.227398648,2.30646e-21,1.3209e-19,2.30643e-21,3.49435e-26
0.2275183315,2.31377e-21,1.3188e-19,2.31374e-21,3.02685e-26
0.227638078,2.32108e-21,1.31671e-19,2.32106e-21,1.90749e-26
0.2277578875,2.32842e-21,1.31462e-19,2.3284e-21,2.41613e-26
0.2278777601,2.33579e-21,1.31253e-19,2.33576e-21,2.86686e-26
0.2279976958,2.34316e-21,1.31045e-19,2.34313e-21,3.12229e-26
0.2281176946,2.35056e-21,1.30838e-19,2.35052e-21,3.27757e-26
0.2282377565,2.35797e-21,1.3063e-19,2.35793e-21,3.64373e-26
0.2283578816,2.36539e-21,1.30423e-19,2.36536e-21,3.94573e-26
0.22847807,2.37284e-21,1.30217e-19,2.3728e-21,4.15672e-26
0.2285983216,2.3803e-21,1.30011e-19,2.38025e-21,4.33028e-26
0.2287186365,2.38777e-21,1.29805e-19,2.38773e-21,4.29682e-26
0.2288390148,2.39526e-21,1.296e-19,2.39522e-21,4.23533e-26
0.2289594563,2.40277e-21,1.29395e-19,2.40273e-21,4.22735e-26
0.2290799613,2.4103e-21,1.29191e-19,2.41026e-21,4.4104e-26
0.2292005297,2.41785e-21,1.28987e-19,2.4178e-21,4.58996e-26
0.2293211616,2.42541e-21,1.28783e-19,2.42536e-21,4.72346e-26
0.2294418569,2.43298e-21,1.2858e-19,2.43294e-21,4.7655e-26
0.2295626158,2.44058e-21,1.28377e-19,2.44053e-21,4.71481e-26
0.2296834382,2.44819e-21,1.28174e-19,2.44814e-21,4.51216e-26
0.2298043243,2.45581e-21,1.27972e-19,2.45577e-21,4.18155e-26
0.2299252739,2.46345e-21,1.2777e-19,2.46341e-21,3.71884e-26
0.2300462872,2.47111e-21,1.27569e-19,2.47107e-21,3.69266e-26
0.2301673642,2.47879e-21,1.27368e-19,2.47875e-21,3.76487e-26
0.2302885049,2.48649e-21,1.27168e-19,2.48645e-21,3.85643e-26
0.2304097094,2.4942e-21,1.26968e-19,2.49416e-21,3.9271e-26
0.2305309777,2.50193e-21,1.26768e-19,2.50189e-21,3.98107e-26
0.2306523097,2.50968e-21,1.26568e-19,2.50964e-21,4.01984e-26
0.2307737057,2.51744e-21,1.26369e-19,2.5174e-21,4.06822e-26
0.2308951655,2.52522e-21,1.26171e-19,2.52518e-21,4.09555e-26
0.2310166893,2.53302e-21,1.25973e-19,2.53298e-21,4.12494e-26
0.231138277,2.54084e-21,1.25775e-19,2.5408e-21,4.13801e-26
0.2312599288,2.54867e-21,1.25577e-19,2.54863e-21,4.1621e-26
0.2313816445,2.55652e-21,1.2538e-19,2.55648e-21,4.13832e-26
0.2315034243,2.56439e-21,1.25183e-19,2.56435e-21,4.00266e-26
0.2316252682,2.57227e-21,1.24987e-19,2.57223e-21,3.86965e-26
0.2317471763,2.58017e-21,1.24791e-19,2.58013e-21,3.79005e-26
0.2318691485,2.58809e-21,1.24595e-19,2.58805e-21,3.80568e-26
0.2319911849,2.59603e-21,1.244e-19,2.59599e-21,3.88232e-26
0.2321132855,2.60398e-21,1.24205e-19,2.60394e-21,3.95882e-26
0.2322354504,2.61195e-21,1.24011e-19,2.61191e-21,4.0023e-26
0.2323576796,2.61994e-21,1.23817e-19,2.6199e-21,3.96348e-26
0.2324799731,2.62794e-21,1.23623e-19,2.6279e-21,3.84411e-26
0.232602331,2.63596e-21,1.2343e-19,2.63593e-21,3.79025e-26
0.2327247532,2.644e-21,1.23237e-19,2.64397e-21,3.79458e-26
0.23284724,2.65206e-21,1.23044e-19,2.65202e-21,3.8003e-26
0.2329697911,2.66014e-21,1.22852e-19,2.6601e-21,3.80762e-26
0.2330924068,2.66823e-21,1.2266e-19,2.66819e-21,3.81142e-26
0.233215087,2.67634e-21,1.22469e-19,2.6763e-21,3.81113e-26
0.2333378318,2.68446e-21,1.22277e-19,2.68443e-21,3.80697e-26
0.2334606412,2.69261e-21,1.22087e-19,2.69257e-21,3.80116e-26
0.2335835152,2.70077e-21,1.21896e-19,2.70073e-21,3.79232e-26
0.2337064539,2.70895e-21,1.21706e-19,2.70891e-21,3.77639e-26
0.2338294573,2.71714e-21,1.21516e-19,2.71711e-21,3.7553e-26
0.2339525254,2.72536e-21,1.21327e-19,2.72532e-21,3.72801e-26
0.2340756584,2.73359e-21,1.21138e-19,2.73355e-21,3.69905e-26
0.2341988561,2.74184e-21,1.20949e-19,2.7418e-21,3.66991e-26
0.2343221186,2.7501e-21,1.20761e-19,2.75007e-21,3.63761e-26
0.2344454461,2.75838e-21,1.20573e-19,2.75835e-21,3.59904e-26
0.2345688384,2.76669e-21,1.20386e-19,2.76665e-21,3.55836e-26
0.2346922957,2.775e-21,1.20199e-19,2.77497e-21,3.51664e-26
0.2348158179,2.78334e-21,1.20012e-19,2.78331e-21,3.47942e-26
0.2349394052,2.79169e-21,1.19825e-19,2.79166e-21,3.45064e-26
0.2350630575,2.80006e-21,1.19639e-19,2.80003e-21,3.42515e-26
0.2351867749,2.80845e-21,1.19453e-19,2.80842e-21,3.40004e-26
0.2353105574,2.81686e-21,1.19268e-19,2.81683e-21,3.37639e-26
0.2354344051,2.82528e-21,1.19083e-19,2.82525e-21,3.35362e-26
0.2355583179,2.83372e-21,1.18898e-19,2.83369e-21,3.33291e-26
0.235682296,2.84218e-21,1.18714e-19,2.84215e-21,3.31265e-26
0.2358063393,2.85066e-21,1.1853e-19,2.85063e-21,3.29174e-26
0.2359304479,2.85916e-21,1.18346e-19,2.85912e-21,3.27341e-26
0.2360546218,2.86767e-21,1.18163e-19,2.86763e-21,3.25626e-26
0.2361788611,2.8762e-21,1.1798e-19,2.87616e-21,3.23906e-26
0.2363031658,2.88474e-21,1.17797e-19,2.88471e-21,3.22182e-26
0.2364275359,2.89331e-21,1.17615e-19,2.89328e-21,3.20502e-26
0.2365519714,2.90189e-21,1.17433e-19,2.90186e-21,3.1874e-26
0.2366764724,2.91049e-21,1.17251e-19,2.91046e-21,3.16938e-26
0.236801039,2.91911e-21,1.1707e-19,2.91908e-21,3.15202e-26
0.2369256711,2.92775e-21,1.16889e-19,2.92772e-21,3.13211e-26
0.2370503689,2.9364e-21,1.16708e-19,2.93637e-21,3.10978e-26
0.2371751322,2.94507e-21,1.16528e-19,2.94504e-21,3.08689e-26
0.2372999612,2.95376e-21,1.16348e-19,2.95373e-21,3.06341e-26
0.2374248559,2.96247e-21,1.16169e-19,2.96244e-21,3.04084e-26
0.2375498164,2.97119e-21,1.15989e-19,2.97116e-21,3.01849e-26
0.2376748426,2.97994e-21,1.1581e-19,2.97991e-21,2.99668e-26
